wavelength-um            Radiance-case1           Radiance-case2           Radiance-case3           
2.000000000000000111e-01 3.057843735190911350e+00 1.776678318898919073e+01 4.380784968702068483e+01
2.138138138138138133e-01 4.915806925436119634e+00 2.983478218918381231e+01 9.587948856088048899e+01
2.276276276276276433e-01 7.298792830354894789e+00 4.252813072962578644e+01 1.285638039526613170e+02
2.414414414414414456e-01 1.022835766124197399e+01 5.827172229185208607e+01 1.638724779070382453e+02
2.552552552552552756e-01 1.353480977189662937e+01 7.675820089387124767e+01 2.183142140573896199e+02
2.690690690690690778e-01 1.744159162621840764e+01 9.701863811923644221e+01 2.535954087424153158e+02
2.828828828828828801e-01 2.150114547942599685e+01 1.172656481777900694e+02 3.113277111719365280e+02
2.966966966966967378e-01 2.567486203634711472e+01 1.393144028782411397e+02 3.749206787033454589e+02
3.105105105105105401e-01 2.961897430012728449e+01 1.613457880604475747e+02 4.003139030606031383e+02
3.243243243243243423e-01 3.381506151869423604e+01 1.818630470035029703e+02 4.311147937064118878e+02
3.381381381381381446e-01 3.778227913748475686e+01 2.015160976447990606e+02 4.774160030046122074e+02
3.519519519519519468e-01 4.148158716662153722e+01 2.179778115487783055e+02 5.104628321060747567e+02
3.657657657657658046e-01 4.444826146694091307e+01 2.344940622404699582e+02 5.213570617651330394e+02
3.795795795795796068e-01 4.772832566499437235e+01 2.496053663284281470e+02 5.744844467719391332e+02
3.933933933933934091e-01 5.025202016776812286e+01 2.621576508323414032e+02 6.187001872645456615e+02
4.072072072072072668e-01 5.278293841598554081e+01 2.728839444766975362e+02 6.167829311372344137e+02
4.210210210210210136e-01 5.464664962357963418e+01 2.808897681619592959e+02 6.208841649811146226e+02
4.348348348348348713e-01 5.620904461618451364e+01 2.874472754710764093e+02 6.216221216614804916e+02
4.486486486486486736e-01 5.734985911365640732e+01 2.925641442019421561e+02 6.216160240694557615e+02
4.624624624624624758e-01 5.854025453478536178e+01 2.973507951410799706e+02 6.296747479254183872e+02
4.762762762762762780e-01 5.918104897140943166e+01 2.996627929645094923e+02 6.505452575962070796e+02
4.900900900900901358e-01 5.945406749838090121e+01 3.003581597291707794e+02 6.382568171415598499e+02
5.039039039039039380e-01 5.958414160123996339e+01 3.000014075521481800e+02 6.302681163030472362e+02
5.177177177177176848e-01 5.977501462991686765e+01 2.983342258189678091e+02 6.229223881206906981e+02
5.315315315315315425e-01 5.945673527127515712e+01 2.966182850312627579e+02 6.155953870332123188e+02
5.453453453453454003e-01 5.900586507467612307e+01 2.944375904374817878e+02 6.131235179265222541e+02
5.591591591591591470e-01 5.829217067789790718e+01 2.901569555911632960e+02 5.988302660984330714e+02
5.729729729729730048e-01 5.777524675170085544e+01 2.854710832493242378e+02 5.973444695958386319e+02
5.867867867867868625e-01 5.675261697310592979e+01 2.815371389978250249e+02 5.676623258139574091e+02
6.006006006006006093e-01 5.602237884355726294e+01 2.761353121737620882e+02 5.682933723136767412e+02
6.144144144144144670e-01 5.505513741602818811e+01 2.702099540192223230e+02 5.394668243015862572e+02
6.282282282282283248e-01 5.390326410684815528e+01 2.642346976904427720e+02 5.498350116214908212e+02
6.420420420420420715e-01 5.275702886935936675e+01 2.594501187739550119e+02 5.453745911142739260e+02
6.558558558558558182e-01 5.166111557391040066e+01 2.517298072455604654e+02 5.111016389243066556e+02
6.696696696696696760e-01 5.027174871416864477e+01 2.465367371921404640e+02 5.372762155001705651e+02
6.834834834834835338e-01 4.923408235321582538e+01 2.414757818597274763e+02 5.255740784728283188e+02
6.972972972972972805e-01 4.793100366609838403e+01 2.343779646165279189e+02 5.337520636213911303e+02
7.111111111111112493e-01 4.665144666492226122e+01 2.279428654477867440e+02 5.391330901657837558e+02
7.249249249249249960e-01 4.538071514295083375e+01 2.229130490190849798e+02 5.235164846509396739e+02
7.387387387387387427e-01 4.430770123071745559e+01 2.157873116271446463e+02 5.288865367408487828e+02
7.525525525525524895e-01 4.321242551749872973e+01 2.099154201411239740e+02 5.505169742494452976e+02
7.663663663663664583e-01 4.190748079320433561e+01 2.035809166270498736e+02 5.609093027042115409e+02
7.801801801801802050e-01 4.074455240155121771e+01 1.979123502332651583e+02 5.695859650120256674e+02
7.939939939939939517e-01 3.935572308788680118e+01 1.942993312181801571e+02 5.961637662742492694e+02
8.078078078078079205e-01 3.827438061167458017e+01 1.878352495993950413e+02 6.055426945169241435e+02
8.216216216216216672e-01 3.736995289114998542e+01 1.830571656583528579e+02 6.336662160291953114e+02
8.354354354354354140e-01 3.611817075103649444e+01 1.788095421086930230e+02 6.543803761985412848e+02
8.492492492492493827e-01 3.516191625131020970e+01 1.742002332486206626e+02 6.961924864561482309e+02
8.630630630630631295e-01 3.396625927591301064e+01 1.703240233724686448e+02 6.984114180505662262e+02
8.768768768768768762e-01 3.306259343509693593e+01 1.665187134333675374e+02 7.476749903441339029e+02
8.906906906906906229e-01 3.215511281421549228e+01 1.629641908412893088e+02 7.877705042850210475e+02
9.045045045045045917e-01 3.096667213150676190e+01 1.605227789192288412e+02 8.103765877700936926e+02
9.183183183183183385e-01 3.012000421435341124e+01 1.579506725195682861e+02 8.562235910380821906e+02
9.321321321321320852e-01 2.901610631239733706e+01 1.556858088010243932e+02 9.014996532561743834e+02
9.459459459459460540e-01 2.832839770873256668e+01 1.538744071626599350e+02 9.572262143169941737e+02
9.597597597597598007e-01 2.742139074473105964e+01 1.523133800105588307e+02 1.013591144481022070e+03
9.735735735735735474e-01 2.646108641417039209e+01 1.523055001064330725e+02 1.052162338584871122e+03
9.873873873873875162e-01 2.574959539587576884e+01 1.519466221971981099e+02 1.122721105972147143e+03
1.001201201201201263e+00 2.494884521512227593e+01 1.523324064862245280e+02 1.161478858009842270e+03
1.015015015015015010e+00 2.421543589606035596e+01 1.525590253173399162e+02 1.242867405789530039e+03
1.028828828828828978e+00 2.342711973473402409e+01 1.541002402810839556e+02 1.302243316768679279e+03
1.042642642642642725e+00 2.255995530052422282e+01 1.568588357089643353e+02 1.372540331351375471e+03
1.056456456456456472e+00 2.200363432899906613e+01 1.589433256444648634e+02 1.418978185943756444e+03
1.070270270270270219e+00 2.126764154943063545e+01 1.608238829598890050e+02 1.518127515952726526e+03
1.084084084084084187e+00 2.058100314083745630e+01 1.664301687601050048e+02 1.563197436977276539e+03
1.097897897897897934e+00 1.993992053584901925e+01 1.694584145610714359e+02 1.634970707474695928e+03
1.111711711711711681e+00 1.927035620435050944e+01 1.764945054540897900e+02 1.713063948728482501e+03
1.125525525525525650e+00 1.873649663428973966e+01 1.814286195478379398e+02 1.793587660569816535e+03
1.139339339339339396e+00 1.835420526488646331e+01 1.868755159326938440e+02 1.849726469333122168e+03
1.153153153153153143e+00 1.790741566023829989e+01 1.954556000194403111e+02 1.946788253721900901e+03
1.166966966966967112e+00 1.721022002936952688e+01 2.024846772938208801e+02 1.999191364254358632e+03
1.180780780780780859e+00 1.659160297587677135e+01 2.104577334669494348e+02 2.101549833325859254e+03
1.194594594594594605e+00 1.615360115499331783e+01 2.200391976206795164e+02 2.174352499719667776e+03
1.208408408408408352e+00 1.590890387945428053e+01 2.288564917051407974e+02 2.262634022292857935e+03
1.222222222222222321e+00 1.535161684000809323e+01 2.396773242484509581e+02 2.313115138088640379e+03
1.236036036036036068e+00 1.478147956325732082e+01 2.510614006261850761e+02 2.397462507691968312e+03
1.249849849849849814e+00 1.450043369790533632e+01 2.621100708821774106e+02 2.491951102619057565e+03
1.263663663663663561e+00 1.396087993846596298e+01 2.755795176213847526e+02 2.562367018482315871e+03
1.277477477477477530e+00 1.350616719188288073e+01 2.872778176770172536e+02 2.628837412152938668e+03
1.291291291291291277e+00 1.327659860056263064e+01 3.019486403270815345e+02 2.719074094933306242e+03
1.305105105105105023e+00 1.273955694595912114e+01 3.160994992676328934e+02 2.777969428748249811e+03
1.318918918918918992e+00 1.242015433649582867e+01 3.306117856309443255e+02 2.858635548951068358e+03
1.332732732732732739e+00 1.208478327646289863e+01 3.464025987512041524e+02 2.939648317733024214e+03
1.346546546546546486e+00 1.160195794770399225e+01 3.626875893113680718e+02 3.012437124502699589e+03
1.360360360360360454e+00 1.135065211101634830e+01 3.791344373847658744e+02 3.078041536702035046e+03
1.374174174174174201e+00 1.111763812814770347e+01 3.974269046535305847e+02 3.142862137386085578e+03
1.387987987987987948e+00 1.070123965763577800e+01 4.140394404911775155e+02 3.217204595272294682e+03
1.401801801801801917e+00 1.059760072866626146e+01 4.327944200722121764e+02 3.292206788758978291e+03
1.415615615615615663e+00 1.018971435008898929e+01 4.507811879560541115e+02 3.363881437202533107e+03
1.429429429429429410e+00 9.891442892104143070e+00 4.710524924248412617e+02 3.408818541683051080e+03
1.443243243243243157e+00 9.685806588464428657e+00 4.901961873734707638e+02 3.485227170567107351e+03
1.457057057057057126e+00 9.359016066814557888e+00 5.105075786357644461e+02 3.568230375598905994e+03
1.470870870870870872e+00 8.911427927766569113e+00 5.307453415818323492e+02 3.623672722198833526e+03
1.484684684684684619e+00 9.149028768390952138e+00 5.523152798912108210e+02 3.685952027667881339e+03
1.498498498498498588e+00 8.680523441454214506e+00 5.742821581963384006e+02 3.726972226152211078e+03
1.512312312312312335e+00 8.461171858893409947e+00 5.957675159479198328e+02 3.787763050717641818e+03
1.526126126126126081e+00 8.123384760002657856e+00 6.178591964643183019e+02 3.842427273203861205e+03
1.539939939939940050e+00 8.104526233218178888e+00 6.400069904927615880e+02 3.892443792697293702e+03
1.553753753753753797e+00 7.916855094258922421e+00 6.620134405422227246e+02 3.940289658473845520e+03
1.567567567567567544e+00 7.864771437721161718e+00 6.856147535742700256e+02 3.985751704799287836e+03
1.581381381381381290e+00 7.567619287806152784e+00 7.096242731477174175e+02 4.052530095773764060e+03
1.595195195195195259e+00 7.250893441534913997e+00 7.332661541303571084e+02 4.079520562846452322e+03
1.609009009009009006e+00 7.327531190838417530e+00 7.558030025277869299e+02 4.139949457554044784e+03
1.622822822822822753e+00 6.699631503219963591e+00 7.806219162066772697e+02 4.188828730382327194e+03
1.636636636636636721e+00 6.875912280617944461e+00 8.033743306547390830e+02 4.223514037249717148e+03
1.650450450450450468e+00 6.805441355568294881e+00 8.282204630406786237e+02 4.267810215185134439e+03
1.664264264264264215e+00 6.487362651329593000e+00 8.529710467105861653e+02 4.291074890288106872e+03
1.678078078078078184e+00 6.411150338618783806e+00 8.768354954439245148e+02 4.338431298396533748e+03
1.691891891891891930e+00 6.226533992856534638e+00 9.013938699019264504e+02 4.383737197100115736e+03
1.705705705705705677e+00 6.214923252923404640e+00 9.259417027970853269e+02 4.418078731923524174e+03
1.719519519519519646e+00 6.220604085627003954e+00 9.495487032750473873e+02 4.430793177582891985e+03
1.733333333333333393e+00 6.161247338761717707e+00 9.741285710068306116e+02 4.448225790292074635e+03
1.747147147147147139e+00 5.858738038895511480e+00 9.984630394729977070e+02 4.483360583384861457e+03
1.760960960960960886e+00 5.832081889632290128e+00 1.023271147158264057e+03 4.526882398642502267e+03
1.774774774774774855e+00 5.683158479052537793e+00 1.046742409317731244e+03 4.552172836325609751e+03
1.788588588588588602e+00 5.774115884048583780e+00 1.072221699908439405e+03 4.577540781870015962e+03
1.802402402402402348e+00 5.670215970166508690e+00 1.096344458726920266e+03 4.587401144626298446e+03
1.816216216216216317e+00 5.674822518946688987e+00 1.120519357447053153e+03 4.593656746919194120e+03
1.830030030030030064e+00 5.432455797440958634e+00 1.143526577265531159e+03 4.636361726665457354e+03
1.843843843843843811e+00 5.307223033344273588e+00 1.167286894271177971e+03 4.648422647455086008e+03
1.857657657657657779e+00 5.426121291265541657e+00 1.191728874674683993e+03 4.663367837147031423e+03
1.871471471471471526e+00 5.406870683468091521e+00 1.214650919007362063e+03 4.673197247868517479e+03
1.885285285285285273e+00 5.391738927117633473e+00 1.238356378498442837e+03 4.687082889376916683e+03
1.899099099099099019e+00 5.230741037596452259e+00 1.261422915763645960e+03 4.719046476338265165e+03
1.912912912912912988e+00 5.343977727206241646e+00 1.284329014206321744e+03 4.707606361705384188e+03
1.926726726726726735e+00 5.665204794331937244e+00 1.307874373741593445e+03 4.721699807154022892e+03
1.940540540540540482e+00 5.392923732660855229e+00 1.329831419612013178e+03 4.726475880241766390e+03
1.954354354354354451e+00 5.416330387847454020e+00 1.351952776252544027e+03 4.730515051845318339e+03
1.968168168168168197e+00 5.479930381180493804e+00 1.373236621597042586e+03 4.738874493555369554e+03
1.981981981981981944e+00 5.542766069152357034e+00 1.394893111156458872e+03 4.743834949813713138e+03
1.995795795795795913e+00 5.739198655877168598e+00 1.416769910555262413e+03 4.754091537639979833e+03
2.009609609609609659e+00 5.568092912042312825e+00 1.437232768787047462e+03 4.771096350240518404e+03
2.023423423423423628e+00 5.870546125584619190e+00 1.458366826822809116e+03 4.757240952818242476e+03
2.037237237237237597e+00 5.856744780804889139e+00 1.478424231149122761e+03 4.747048349962996326e+03
2.051051051051051122e+00 5.818174668541138850e+00 1.499176832645071499e+03 4.756167094459894543e+03
2.064864864864865091e+00 5.941439923352334063e+00 1.519006846718784118e+03 4.755899161467700651e+03
2.078678678678678615e+00 5.964498725880523544e+00 1.538356666148742306e+03 4.763644223940049415e+03
2.092492492492492584e+00 6.034083869266732236e+00 1.557549113115544742e+03 4.746421229945761297e+03
2.106306306306306553e+00 6.354161284520096764e+00 1.576577236825245564e+03 4.743696829749710560e+03
2.120120120120120077e+00 6.378055273391902702e+00 1.594946650540719020e+03 4.756390799768963006e+03
2.133933933933934046e+00 6.588991752722297868e+00 1.613273561245972132e+03 4.728836625836121129e+03
2.147747747747748015e+00 6.483878567572300078e+00 1.631254796446006821e+03 4.715305025947568538e+03
2.161561561561561540e+00 6.706856733264818793e+00 1.648146455323400687e+03 4.719597140436353584e+03
2.175375375375375508e+00 6.893782642026168084e+00 1.664893309143965325e+03 4.687858585044539723e+03
2.189189189189189477e+00 7.279398760680073188e+00 1.681924124238148579e+03 4.701484198543193088e+03
2.203003003003003446e+00 7.108344318151373464e+00 1.698928274201328804e+03 4.703745173725018503e+03
2.216816816816816971e+00 7.337840463960022319e+00 1.714933642634892976e+03 4.682874752091521259e+03
2.230630630630630939e+00 7.530704212908260864e+00 1.729583055799077783e+03 4.635521727681321863e+03
2.244444444444444908e+00 7.756318472967150157e+00 1.745256797832764960e+03 4.660663655021973682e+03
2.258258258258258433e+00 8.062988921886523386e+00 1.760730241502930539e+03 4.657089066186978016e+03
2.272072072072072402e+00 8.276613867912963940e+00 1.775661362358386896e+03 4.619507977607770954e+03
2.285885885885886371e+00 8.463658452722878422e+00 1.788211077935843377e+03 4.611549081731101069e+03
2.299699699699699895e+00 8.729717768386446863e+00 1.802599506642238566e+03 4.592531559239097987e+03
2.313513513513513864e+00 9.039939681051347264e+00 1.816389800693978714e+03 4.569792410728347022e+03
2.327327327327327389e+00 9.183857869716465672e+00 1.828700162555943962e+03 4.552331460561719723e+03
2.341141141141141357e+00 9.549711147933271249e+00 1.840791765966057710e+03 4.540440534968325665e+03
2.354954954954955326e+00 9.732261222499687392e+00 1.853653068970497998e+03 4.531985948859986820e+03
2.368768768768768851e+00 9.973878616021174537e+00 1.866241812383834940e+03 4.509084247164926637e+03
2.382582582582582820e+00 1.029974612590637939e+01 1.876621549159570350e+03 4.484213824039645260e+03
2.396396396396396788e+00 1.101299739130576150e+01 1.889475793415514318e+03 4.482170046869225189e+03
2.410210210210210313e+00 1.099940634509940196e+01 1.899337291065348154e+03 4.465450063136507197e+03
2.424024024024024282e+00 1.138969495188176495e+01 1.910274583642305515e+03 4.450201776139870162e+03
2.437837837837838251e+00 1.167008876453627941e+01 1.920211908499288711e+03 4.420472514424292058e+03
2.451651651651651775e+00 1.202352400641937713e+01 1.929744037891164680e+03 4.402961310639680050e+03
2.465465465465465744e+00 1.254247513459462660e+01 1.938898808096028688e+03 4.385204336179335769e+03
2.479279279279279713e+00 1.264954046682391464e+01 1.948441189566717867e+03 4.366291010097693288e+03
2.493093093093093238e+00 1.313232419998106515e+01 1.956940141952078193e+03 4.334600441301849969e+03
2.506906906906907206e+00 1.352693945703403600e+01 1.964927053210058830e+03 4.329122151525315530e+03
2.520720720720721175e+00 1.401369946673421829e+01 1.974034060144526620e+03 4.294165885989511480e+03
2.534534534534534700e+00 1.438159258312026623e+01 1.980085854783740388e+03 4.261004180121360150e+03
2.548348348348348669e+00 1.493657650930136960e+01 1.987665582598164065e+03 4.259914539965282529e+03
2.562162162162162637e+00 1.519913994636525878e+01 1.994227469391789782e+03 4.224095076296423940e+03
2.575975975975976162e+00 1.570578185852059150e+01 2.001531957529483634e+03 4.207700348256132202e+03
2.589789789789790131e+00 1.585040075777820867e+01 2.007883134195019466e+03 4.178097989302545102e+03
2.603603603603604100e+00 1.643515428208736395e+01 2.014003155809240297e+03 4.156246947601288412e+03
2.617417417417417624e+00 1.699148034248947070e+01 2.019505393106033125e+03 4.122364380439373235e+03
2.631231231231231593e+00 1.757146152968810071e+01 2.025489463533998332e+03 4.130834253410192105e+03
2.645045045045045118e+00 1.778886463156879216e+01 2.030065562222744347e+03 4.083583569248129152e+03
2.658858858858859087e+00 1.825808589403300886e+01 2.034616941235911781e+03 4.062896504654717319e+03
2.672672672672673055e+00 1.872075996102108419e+01 2.037044311150653812e+03 4.034463696655325293e+03
2.686486486486486580e+00 1.937442644533792802e+01 2.044001699218650856e+03 4.036111402723997344e+03
2.700300300300300549e+00 1.965400937689647520e+01 2.047689554638850268e+03 3.998916877140886754e+03
2.714114114114114518e+00 2.032823502268049509e+01 2.050903965566684747e+03 3.974026010345497070e+03
2.727927927927928042e+00 2.074926724099623243e+01 2.053905540604996986e+03 3.944555058526567336e+03
2.741741741741742011e+00 2.131116041599146982e+01 2.057462934327561925e+03 3.916073055517858393e+03
2.755555555555555980e+00 2.185339687607770642e+01 2.059243425341505372e+03 3.903194572931932726e+03
2.769369369369369505e+00 2.249156132421609655e+01 2.062140159046524332e+03 3.872917775827661899e+03
2.783183183183183473e+00 2.296148603799176868e+01 2.064091745991973767e+03 3.867055019082637500e+03
2.796996996996997442e+00 2.350062650313800106e+01 2.065820438437262965e+03 3.828083180010735305e+03
2.810810810810810967e+00 2.416883975145004371e+01 2.067776871590036080e+03 3.809941345125776479e+03
2.824624624624624936e+00 2.480063298642013692e+01 2.070132399600160170e+03 3.813679537327956496e+03
2.838438438438438904e+00 2.526261609743484016e+01 2.070363682594791044e+03 3.758895565204330069e+03
2.852252252252252429e+00 2.590784180627986899e+01 2.071718165882281937e+03 3.705591560368372939e+03
2.866066066066066398e+00 2.649566273729891819e+01 2.071796350034546322e+03 3.704631057334541310e+03
2.879879879879880367e+00 2.709829554912083793e+01 2.072202839252210651e+03 3.705183170309176148e+03
2.893693693693693891e+00 2.755532338063949283e+01 2.072734930960991733e+03 3.655193725157044810e+03
2.907507507507507860e+00 2.838368852556829580e+01 2.072215124798592115e+03 3.651235509349867698e+03
2.921321321321321829e+00 2.872062227955347424e+01 2.073580823271694499e+03 3.601053020526817818e+03
